# Energy [MeV] | Flux [cm^-2 s^-1 MeV^-1]
7.499999999999999722e-03 4.471525493847233057e+08
2.249999999999999917e-02 4.023302009699030519e+08
3.749999999999999861e-02 3.626385372711648345e+08
5.249999999999999806e-02 3.274338283739752173e+08
6.750000000000000444e-02 2.961591884829037189e+08
8.250000000000000389e-02 2.683321265246961415e+08
9.750000000000000333e-02 2.435339777173855901e+08
1.125000000000000028e-01 2.214009183840294182e+08
1.275000000000000022e-01 2.016163154246462286e+08
1.424999999999999878e-01 1.839042025717324018e+08
1.575000000000000011e-01 1.680237093385872245e+08
1.724999999999999867e-01 1.537642966466397047e+08
1.875000000000000000e-01 1.409416764868824482e+08
2.025000000000000133e-01 1.293943124494845420e+08
2.174999999999999989e-01 1.189804142159498483e+08
2.325000000000000122e-01 1.095753527012531161e+08
2.474999999999999978e-01 1.010694339130445719e+08
2.625000000000000111e-01 9.336597913517498970e+07
2.775000000000000244e-01 8.637966705204820633e+07
2.924999999999999822e-01 8.003510016368176043e+07
3.074999999999999956e-01 7.426556350987179577e+07
3.225000000000000089e-01 6.901194850046230853e+07
3.375000000000000222e-01 6.422181868252483755e+07
3.524999999999999800e-01 5.984859768492966890e+07
3.674999999999999933e-01 5.585086246670613438e+07
3.825000000000000067e-01 5.219172744141061604e+07
3.975000000000000200e-01 4.883830712524848431e+07
4.124999999999999778e-01 4.576124672026461363e+07
4.274999999999999911e-01 4.293431154431544244e+07
4.425000000000000044e-01 4.033402749765300006e+07
4.575000000000000178e-01 3.793936584607394040e+07
4.724999999999999756e-01 3.573146653151795268e+07
4.874999999999999889e-01 3.369339501696156710e+07
5.024999999999999467e-01 3.180992835383721069e+07
5.174999999999999600e-01 3.006736674421019480e+07
5.324999999999999734e-01 2.845336737107884139e+07
5.474999999999999867e-01 2.695679770069302246e+07
5.625000000000000000e-01 2.556760583109143004e+07
5.775000000000000133e-01 2.427670577993122488e+07
5.925000000000000266e-01 2.307587587958306819e+07
6.075000000000000400e-01 2.195766868472219631e+07
6.225000000000000533e-01 2.091533100264720246e+07
6.374999999999999556e-01 1.994273283388437703e+07
6.524999999999999689e-01 1.903430416419173777e+07
6.674999999999999822e-01 1.818497868219529465e+07
6.824999999999999956e-01 1.739014361241489649e+07
6.975000000000000089e-01 1.664559495380050503e+07
7.125000000000000222e-01 1.594749750118537620e+07
7.275000000000000355e-01 1.529234910305245034e+07
7.425000000000000488e-01 1.467694867523624934e+07
7.574999999999999512e-01 1.409836754795816541e+07
7.724999999999999645e-01 1.355392377404751629e+07
7.874999999999999778e-01 1.304115907030765899e+07
8.024999999999999911e-01 1.255781810258096270e+07
8.175000000000000044e-01 1.210182985887290537e+07
8.325000000000000178e-01 1.167129088453603536e+07
8.475000000000000311e-01 1.126445017952739820e+07
8.625000000000000444e-01 1.087969558060546964e+07
8.774999999999999467e-01 1.051554147142628767e+07
8.924999999999999600e-01 1.017061768118446507e+07
9.074999999999999734e-01 9.843659448024887592e+06
9.224999999999999867e-01 9.533498337189923972e+06
9.375000000000000000e-01 9.239054015992393717e+06
9.525000000000000133e-01 8.959326798416383564e+06
9.675000000000000266e-01 8.693390881619539112e+06
9.825000000000000400e-01 8.440388204992128536e+06
9.975000000000000533e-01 8.199522869853102602e+06
1.012499999999999956e+00 7.970056064445096068e+06
1.027500000000000080e+00 7.751301444731242955e+06
1.042499999999999982e+00 7.542620926683117636e+06
1.057500000000000107e+00 7.343420850359475240e+06
1.072500000000000009e+00 7.153148480176770128e+06
1.087499999999999911e+00 6.971288809423604049e+06
1.102500000000000036e+00 6.797361640325073153e+06
1.117499999999999938e+00 6.630918913864688016e+06
1.132500000000000062e+00 6.471542266161105596e+06
1.147499999999999964e+00 6.318840790510399267e+06
1.162500000000000089e+00 6.172448986272539012e+06
1.177499999999999991e+00 6.032024877630955540e+06
1.192499999999999893e+00 5.897248286910600029e+06
1.207500000000000018e+00 5.767819248624463566e+06
1.222499999999999920e+00 5.643456551749484614e+06
1.237500000000000044e+00 5.523896398927587084e+06
1.252499999999999947e+00 5.408891172360384837e+06
1.267500000000000071e+00 5.298208297130515799e+06
1.282499999999999973e+00 5.191629193549818359e+06
1.297500000000000098e+00 5.088948310915431008e+06
1.312500000000000000e+00 4.989972235758072697e+06
1.327499999999999902e+00 4.894518868300666101e+06
1.342500000000000027e+00 4.802416661417505704e+06
1.357499999999999929e+00 4.713503916900087148e+06
1.372500000000000053e+00 4.627628134302360937e+06
1.387499999999999956e+00 4.544645408059472218e+06
1.402500000000000080e+00 4.464419868955432437e+06
1.417499999999999982e+00 4.386823166360430419e+06
1.432500000000000107e+00 4.311733987970995717e+06
1.447500000000000009e+00 4.239037614069833420e+06
1.462499999999999911e+00 4.168625503578958102e+06
1.477500000000000036e+00 4.100394909413316287e+06
1.492499999999999938e+00 4.034248520853919908e+06
1.507500000000000062e+00 3.970094130851879716e+06
1.522499999999999964e+00 3.907844326350233052e+06
1.537500000000000089e+00 3.847416199869481847e+06
1.552499999999999991e+00 3.788731080748084933e+06
1.567499999999999893e+00 3.731714284561217297e+06
1.582500000000000018e+00 3.676294879361716565e+06
1.597499999999999920e+00 3.622405467497058213e+06
1.612500000000000044e+00 3.569981981856546830e+06
1.627499999999999947e+00 3.518963495494651608e+06
1.642500000000000071e+00 3.469292043659991119e+06
1.657499999999999973e+00 3.420912457336388528e+06
1.672500000000000098e+00 3.373772207472110167e+06
1.687500000000000000e+00 3.327821259137946647e+06
1.702499999999999902e+00 3.283011934913234320e+06
1.717500000000000027e+00 3.239298786853085272e+06
1.732499999999999929e+00 3.196638476439192891e+06
1.747500000000000053e+00 3.154989661962155718e+06
1.762499999999999956e+00 3.114312892824739683e+06
1.777500000000000080e+00 3.074570510293774307e+06
1.792499999999999982e+00 3.035726554263429716e+06
1.807500000000000107e+00 2.997746675625128672e+06
1.822500000000000009e+00 2.960598053868750576e+06
1.837499999999999911e+00 2.924249319567537867e+06
1.852500000000000036e+00 2.888670481423936784e+06
1.867499999999999938e+00 2.853832857577109244e+06
1.882500000000000062e+00 2.819709010894181207e+06
1.897499999999999964e+00 2.786272687986935023e+06
1.912500000000000089e+00 2.753498761714113876e+06
1.927499999999999991e+00 2.721363176946108229e+06
1.942499999999999893e+00 2.689842899384537246e+06
1.957500000000000018e+00 2.658915867243511137e+06
1.972499999999999920e+00 2.628560945612679701e+06
1.987500000000000044e+00 2.598757883334537502e+06
2.002499999999999947e+00 2.569487272239738610e+06
2.017500000000000071e+00 2.540730508594846819e+06
2.032500000000000195e+00 2.512469756626647431e+06
2.047499999999999876e+00 2.484687913996228948e+06
2.062500000000000000e+00 2.457368579104459379e+06
2.077500000000000124e+00 2.430496020118325017e+06
2.092499999999999805e+00 2.404055145614716224e+06
2.107499999999999929e+00 2.378031476745187305e+06
2.122500000000000053e+00 2.352411120831253007e+06
2.137500000000000178e+00 2.327180746305729728e+06
2.152499999999999858e+00 2.302327558921051212e+06
2.167499999999999982e+00 2.277839279150400311e+06
2.182500000000000107e+00 2.253704120712367352e+06
2.197499999999999787e+00 2.229910770154043566e+06
2.212499999999999911e+00 2.206448367431611288e+06
2.227500000000000036e+00 2.183306487431347370e+06
2.242500000000000160e+00 2.160475122377300169e+06
2.257499999999999840e+00 2.137944665075502358e+06
2.272499999999999964e+00 2.115705892947332002e+06
2.287500000000000089e+00 2.093749952807791298e+06
2.302500000000000213e+00 2.072068346347063081e+06
2.317499999999999893e+00 2.050652916276126169e+06
2.332500000000000018e+00 2.029495833099783631e+06
2.347500000000000142e+00 2.008589582482452504e+06
2.362499999999999822e+00 1.987926953174236231e+06
2.377499999999999947e+00 1.967501025466783904e+06
2.392500000000000071e+00 1.947305160150054842e+06
2.407500000000000195e+00 1.927332987943078624e+06
2.422499999999999876e+00 1.907578399373127613e+06
2.437500000000000000e+00 1.888035535079437774e+06
2.452500000000000124e+00 1.868698776518835220e+06
2.467499999999999805e+00 1.849562737052106764e+06
2.482499999999999929e+00 1.830622253391033737e+06
2.497500000000000053e+00 1.811872377387295244e+06
2.512500000000000178e+00 1.793308368145492161e+06
2.527499999999999858e+00 1.774925684443555539e+06
2.542499999999999982e+00 1.756719977444783552e+06
2.557500000000000107e+00 1.738687083686754107e+06
2.572499999999999787e+00 1.720823018332970794e+06
2.587499999999999911e+00 1.703123968674226897e+06
2.602500000000000036e+00 1.685586287867212202e+06
2.617500000000000160e+00 1.668206488898648182e+06
2.632499999999999840e+00 1.650981238763974514e+06
2.647499999999999964e+00 1.633907352850207360e+06
2.662500000000000089e+00 1.616981789513125783e+06
2.677500000000000213e+00 1.600201644839690998e+06
2.692499999999999893e+00 1.583564147586900741e+06
2.707500000000000018e+00 1.567066654289016034e+06
2.722500000000000142e+00 1.550706644525355194e+06
2.737499999999999822e+00 1.534481716341517633e+06
2.752499999999999947e+00 1.518389581817132421e+06
2.767500000000000071e+00 1.502428062773776706e+06
2.782500000000000195e+00 1.486595086616966408e+06
2.797499999999999876e+00 1.470888682306547882e+06
2.812500000000000000e+00 1.455306976450180868e+06
2.827500000000000124e+00 1.439848189514826052e+06
2.842499999999999805e+00 1.424510632151530590e+06
2.857499999999999929e+00 1.409292701629073126e+06
2.872500000000000053e+00 1.394192878372241510e+06
2.887500000000000178e+00 1.379209722600878449e+06
2.902499999999999858e+00 1.364341871065940708e+06
2.917499999999999982e+00 1.349588033879106864e+06
2.932500000000000107e+00 1.334946991432707524e+06
2.947499999999999787e+00 1.320417591406877385e+06
2.962499999999999911e+00 1.305998745861061849e+06
2.977500000000000036e+00 1.291689428407183615e+06
2.992500000000000160e+00 1.277488671461879276e+06
